#Creator: pendulumviewEventBuffer
#Creation time: Mon Feb 20 15:58:46 2017
#Time A	Pos A	Time B	Pos B
#[s]	[au]	[s]	[au]
0.025	516	0.051	474
0.076	456	0.101	472
0.126	393	0.152	473
0.178	331	0.202	471
0.228	272	0.253	470
0.279	221	0.304	466
0.329	179	0.355	466
0.380	148	0.405	462
0.431	131	0.456	460
0.482	129	0.506	456
0.532	143	0.558	453
0.583	166	0.608	450
0.633	203	0.659	447
0.685	250	0.709	446
0.735	306	0.760	444
0.786	367	0.811	446
0.836	430	0.862	446
0.887	491	0.912	449
0.938	547	0.963	451
0.989	598	1.013	457
1.039	637	1.064	460
1.090	665	1.115	467
1.140	679	1.166	472
1.191	676	1.216	479
1.242	661	1.267	484
1.293	633	1.318	490
1.343	593	1.369	494
1.394	543	1.420	497
1.444	485	1.470	498
1.496	426	1.521	497
1.546	363	1.571	497
1.597	305	1.623	492
1.647	251	1.673	488
1.698	206	1.724	480
1.749	170	1.774	472
1.800	145	1.825	463
1.850	136	1.875	455
1.901	142	1.927	445
1.951	160	1.977	438
2.002	188	2.028	431
2.053	229	2.078	425
2.104	279	2.129	421
2.154	336	2.180	420
2.205	396	2.231	421
2.255	457	2.281	423
2.307	514	2.332	429
2.357	566	2.382	435
2.408	609	2.434	446
2.458	644	2.484	456
2.509	665	2.535	468
2.560	670	2.585	479
2.611	663	2.636	492
2.661	643	2.686	501
2.712	609	2.738	510
2.762	567	2.788	518
2.813	516	2.839	521
2.864	457	2.889	523
2.915	398	2.940	522
2.965	339	2.991	517
3.016	284	3.042	510
3.066	236	3.092	502
3.118	195	3.143	489
3.168	166	3.193	476
3.219	148	3.245	460
3.269	145	3.295	446
3.320	157	3.346	432
3.371	179	3.396	420
3.422	212	3.447	408
3.472	257	3.498	401
3.523	307	3.549	396
3.573	364	3.599	396
3.624	423	3.650	399
3.675	481	3.700	405
3.726	534	3.751	415
3.776	582	3.802	426
3.827	619	3.853	441
3.877	647	3.903	457
3.929	661	3.954	474
3.979	659	4.004	492
4.030	646	4.056	508
4.080	621	4.106	520
4.131	584	4.157	534
4.182	538	4.207	541
4.233	486	4.258	546
4.283	429	4.309	546
4.334	371	4.360	542
4.384	316	4.410	534
4.435	266	4.461	522
4.486	222	4.511	508
4.537	189	4.562	490
4.587	166	4.613	472
4.638	156	4.664	451
4.688	162	4.714	433
4.740	176	4.765	413
4.790	202	4.815	399
4.841	239	4.867	385
4.891	286	4.917	377
4.942	337	4.968	372
4.993	392	5.018	373
5.044	447	5.069	378
5.094	501	5.120	389
5.145	549	5.171	404
5.195	591	5.221	421
5.246	622	5.272	443
5.297	644	5.322	463
5.348	649	5.373	487
5.398	642	5.424	507
5.449	625	5.475	527
5.499	595	5.525	543
5.551	556	5.576	557
5.601	509	5.626	565
5.652	459	5.678	569
5.702	403	5.728	566
5.753	350	5.779	559
5.804	298	5.829	547
5.855	254	5.880	530
5.905	216	5.931	511
5.956	188	5.982	486
6.006	172	6.032	463
6.058	170	6.083	438
6.108	179	6.133	415
6.159	198	6.184	392
6.209	228	6.235	375
6.260	265	6.286	360
6.310	313	6.336	352
6.362	363	6.387	349
6.412	416	6.437	354
6.463	468	6.489	363
6.513	518	6.539	378
6.564	561	6.590	398
6.615	596	6.640	422
6.666	621	6.691	448
6.716	633	6.742	474
6.767	633	6.793	502
6.817	623	6.843	526
6.869	601	6.894	550
6.919	568	6.944	567
6.970	528	6.995	580
7.020	481	7.046	587
7.071	431	7.097	589
7.121	380	7.147	583
7.173	329	7.198	572
7.223	284	7.248	556
7.274	245	7.300	533
7.324	213	7.350	507
7.375	192	7.401	479
7.426	183	7.451	450
7.477	188	7.502	420
7.527	199	7.553	393
7.578	222	7.604	369
7.628	254	7.654	351
7.680	294	7.705	337
7.730	340	7.755	332
7.781	389	7.806	330
7.831	439	7.857	339
7.882	486	7.908	352
7.932	530	7.958	374
7.984	567	8.009	398
8.034	595	8.059	427
8.085	612	8.111	459
8.135	620	8.161	490
8.186	615	8.212	522
8.237	600	8.262	548
8.288	575	8.313	573
8.338	541	8.364	591
8.389	500	8.415	602
8.439	455	8.465	607
8.491	407	8.516	606
8.541	359	8.566	595
8.592	315	8.618	579
8.642	275	8.668	557
8.693	241	8.719	529
8.743	216	8.769	498
8.795	202	8.820	465
8.845	200	8.870	431
8.896	206	8.922	398
8.946	222	8.972	371
8.997	248	9.023	345
9.048	281	9.073	327
9.099	321	9.124	316
9.149	365	9.175	313
9.200	411	9.226	315
9.250	457	9.276	329
9.302	499	9.327	347
9.352	537	9.377	374
9.403	568	9.429	405
9.453	589	9.479	438
9.504	601	9.530	473
9.554	602	9.580	509
9.606	593	9.631	543
9.656	575	9.681	573
9.707	548	9.733	597
9.757	514	9.783	614
9.808	474	9.834	624
9.859	431	9.884	624
9.910	387	9.935	618
9.960	344	9.986	603
10.011	304	10.037	583
10.061	270	10.087	554
10.113	243	10.138	522
10.163	225	10.188	486
10.214	217	10.240	448
10.264	218	10.290	411
10.315	229	10.341	376
10.365	247	10.391	347
10.417	275	10.442	321
10.467	307	10.492	306
10.518	347	10.544	297
10.568	387	10.594	297
10.619	430	10.645	305
10.671	471	10.695	324
10.721	507	10.746	347
10.772	540	10.797	380
10.822	564	10.848	414
10.873	579	10.898	454
10.924	584	10.949	493
10.975	582	10.999	531
11.025	570	11.051	566
11.076	549	11.101	595
11.126	521	11.152	619
11.178	487	11.202	634
11.228	449	11.253	641
11.279	410	11.303	637
11.329	370	11.355	627
11.380	331	11.405	606
11.430	299	11.456	579
11.482	271	11.506	545
11.532	250	11.557	509
11.583	238	11.608	467
11.633	236	11.659	428
11.684	239	11.709	387
11.735	253	11.760	353
11.786	273	11.810	323
11.836	302	11.862	299
11.887	334	11.912	286
11.937	370	11.963	281
11.989	407	12.013	286
12.039	446	12.064	299
12.090	480	12.114	325
12.140	510	12.166	353
12.191	536	12.216	391
12.241	554	12.267	429
12.293	563	12.317	473
12.343	566	12.368	514
12.394	559	12.419	555
12.444	545	12.470	589
12.495	523	12.520	618
12.546	495	12.571	638
12.597	463	12.621	650
12.647	428	12.673	652
12.698	393	12.723	645
12.748	358	12.774	629
12.800	326	12.824	604
12.850	297	12.875	573
12.901	277	12.925	533
12.951	262	12.977	493
13.002	255	13.027	448
13.052	255	13.078	405
13.104	261	13.128	364
13.154	277	13.179	329
13.205	298	13.230	300
13.255	326	13.281	280
13.306	356	13.331	271
13.357	388	13.382	270
13.408	421	13.432	280
13.458	455	13.484	299
13.509	484	13.534	330
13.559	508	13.585	364
13.611	528	13.635	406
13.661	540	13.686	448
13.712	546	13.736	494
13.762	545	13.788	537
13.813	535	13.839	578
13.863	520	13.889	611
13.915	498	13.940	639
13.965	471	13.990	656
14.016	443	14.042	663
14.066	411	14.092	661
14.117	381	14.143	649
14.168	350	14.193	628
14.219	325	14.244	597
14.269	302	14.295	560
14.320	286	14.346	518
14.370	277	14.396	473
14.422	273	14.447	425
14.472	278	14.497	382
14.523	287	14.549	340
14.573	303	14.599	306
14.624	323	14.650	280
14.674	348	14.700	265
14.726	376	14.751	259
14.776	405	14.801	264
14.827	433	14.853	278
14.877	460	14.903	304
14.928	482	14.954	338
14.979	502	15.004	379
15.030	515	15.055	423
15.080	524	15.106	469
15.131	525	15.157	518
15.181	520	15.207	560
15.233	510	15.258	600
15.283	494	15.308	633
15.334	474	15.360	657
15.384	450	15.410	669
15.435	425	15.461	671
15.485	398	15.511	664
15.537	373	15.562	647
15.587	349	15.612	621
15.638	329	15.664	586
15.688	312	15.714	545
15.739	301	15.765	498
15.790	295	15.815	451
15.841	295	15.866	403
15.891	301	15.917	358
15.942	311	15.968	318
15.992	327	16.018	287
16.044	345	16.069	263
16.094	368	16.119	253
16.145	392	16.171	252
16.195	415	16.221	262
16.246	438	16.272	284
16.296	459	16.322	314
16.348	476	16.373	352
16.398	491	16.423	397
16.449	500	16.475	445
16.499	504	16.525	493
16.550	503	16.576	541
16.601	497	16.626	584
16.652	487	16.677	623
16.702	471	16.728	651
16.753	453	16.779	671
16.803	433	16.829	678
16.855	412	16.880	675
16.905	391	16.930	663
16.956	370	16.982	640
17.006	352	17.032	610
17.057	337	17.083	569
17.107	325	17.133	525
17.159	319	17.184	476
17.209	315	17.234	428
17.260	318	17.286	378
17.310	324	17.336	335
17.361	335	17.387	298
17.412	349	17.437	270
17.463	365	17.488	251
17.514	383	17.539	246
17.564	402	17.590	249
17.615	421	17.640	265
17.666	438	17.691	292
17.717	454	17.741	327
17.767	466	17.793	370
17.818	476	17.843	418
17.868	481	17.894	468
17.920	483	17.944	517
17.970	480	17.995	564
18.021	473	18.045	605
18.071	463	18.097	640
18.122	451	18.147	665
18.172	436	18.198	680
18.224	420	18.248	682
18.274	403	18.299	675
18.325	387	18.350	657
18.375	373	18.401	631
18.426	359	18.451	593
18.477	349	18.502	551
18.528	343	18.552	503
18.578	338	18.604	453
18.629	338	18.654	402
18.679	341	18.705	355
18.731	347	18.755	315
18.781	356	18.806	280
18.832	367	18.856	257
18.882	381	18.908	243
18.933	394	18.958	245
18.983	409	19.009	252
19.035	423	19.059	275
19.085	435	19.110	305
19.136	446	19.161	346
19.186	452	19.212	391
19.237	458	19.262	441
19.288	460	19.313	492
19.339	460	19.363	540
19.389	457	19.415	586
19.440	451	19.465	625
19.490	443	19.516	655
19.542	433	19.566	675
19.592	423	19.617	685
19.643	411	19.667	682
19.693	400	19.719	670
19.744	388	19.769	647
19.794	379	19.820	616
19.846	371	19.870	575
19.896	364	19.921	529
19.947	360	19.972	478
19.997	360	20.023	428
20.048	359	20.073	379
20.099	363	20.124	334
20.150	368	20.174	295
20.200	375	20.226	267
20.251	383	20.276	248
20.301	392	20.327	240
20.353	401	20.377	246
20.403	410	20.428	260
20.454	419	20.478	288
20.504	426	20.530	322
20.555	432	20.581	366
20.605	436	20.631	413
20.657	438	20.682	464
20.707	439	20.732	515
20.758	439	20.784	563
20.808	436	20.834	606
20.859	432	20.885	641
20.910	426	20.935	668
20.961	420	20.986	682
21.011	413	21.037	685
21.062	407	21.088	677
21.112	401	21.138	661
21.164	394	21.189	632
21.214	389	21.239	597
21.265	385	21.291	552
21.315	383	21.341	506
21.366	381	21.392	454
21.416	381	21.442	405
21.468	382	21.493	357
21.518	384	21.543	316
21.569	387	21.595	281
21.619	391	21.645	256
21.670	394	21.696	244
21.721	400	21.746	243
21.772	402	21.797	253
21.822	408	21.848	273
21.873	410	21.899	305
21.923	414	21.949	343
21.975	415	22.000	390
22.025	417	22.050	437
22.076	418	22.102	489
22.126	417	22.152	537
22.177	417	22.203	583
22.227	416	22.253	622
22.279	415	22.304	653
22.329	413	22.354	674
22.380	412	22.406	683
22.430	409	22.456	680
22.481	407	22.507	669
22.532	406	22.557	647
22.583	405	22.608	615
22.633	403	22.659	577
22.684	403	22.710	530
22.734	402	22.760	481
22.786	402	22.811	431
22.836	402	22.861	383
22.887	402	22.913	338
22.937	401	22.963	300
22.988	402	23.014	270
23.038	402	23.064	253
23.090	402	23.115	246
23.140	402	23.165	250
23.191	401	23.217	264
23.241	401	23.267	289
23.292	400	23.318	326
23.343	400	23.368	366
23.394	399	23.419	414
23.444	398	23.470	463
23.495	399	23.521	512
23.545	400	23.571	558
23.597	400	23.622	601
23.647	402	23.672	635
23.698	404	23.724	661
23.748	406	23.774	675
23.799	408	23.825	679
23.850	409	23.875	672
23.901	413	23.926	656
23.951	414	23.976	630
24.002	416	24.028	595
24.052	418	24.078	554
24.103	419	24.129	504
24.154	420	24.179	458
24.205	419	24.230	409
24.255	417	24.281	363
24.306	416	24.332	320
24.356	413	24.382	289
24.408	409	24.433	264
24.458	406	24.483	253
24.509	401	24.535	251
24.559	398	24.585	260
24.610	393	24.636	280
24.661	389	24.686	310
24.712	386	24.737	348
24.762	384	24.787	391
24.813	382	24.839	438
24.863	382	24.889	487
24.914	382	24.940	534
24.965	385	24.990	576
25.016	388	25.041	615
25.067	393	25.092	644
25.117	398	25.143	665
25.168	403	25.193	673
25.219	410	25.244	672
25.270	416	25.294	661
25.320	422	25.346	640
25.371	427	25.396	610
25.421	431	25.447	573
25.473	434	25.497	529
25.523	435	25.548	483
25.574	435	25.598	435
25.624	434	25.650	389
25.675	431	25.700	347
25.725	427	25.751	310
25.777	420	25.801	283
25.827	413	25.852	263
25.878	406	25.903	258
25.928	399	25.954	261
25.979	390	26.004	274
26.030	382	26.055	298
26.081	376	26.105	330
26.131	371	26.157	371
26.182	368	26.207	415
26.232	366	26.258	461
26.284	367	26.308	508
26.334	368	26.359	553
26.385	373	26.410	591
26.435	379	26.461	625
26.486	387	26.511	650
26.536	396	26.562	665
26.588	406	26.612	667
26.638	415	26.663	661
26.689	424	26.714	646
26.739	434	26.765	622
26.790	441	26.815	589
26.841	446	26.866	549
26.892	450	26.916	506
26.942	450	26.968	460
26.993	450	27.018	415
27.043	448	27.069	371
27.095	442	27.119	334
27.145	434	27.170	303
27.196	425	27.221	280
27.246	414	27.272	267
27.297	402	27.322	266
27.347	391	27.373	272
27.399	380	27.423	293
27.449	370	27.474	319
27.500	362	27.525	355
27.550	355	27.576	395
27.601	352	27.626	439
27.652	350	27.677	484
27.703	352	27.727	527
27.753	357	27.779	568
27.804	364	27.829	603
27.854	373	27.880	632
27.906	385	27.930	650
27.956	398	27.981	659
28.007	411	28.032	657
28.057	424	28.083	648
28.108	436	28.134	627
28.158	447	28.184	601
28.210	456	28.235	565
28.260	463	28.285	526
28.311	465	28.337	482
28.361	466	28.387	439
28.412	463	28.438	396
28.463	458	28.488	357
28.514	448	28.539	325
28.564	438	28.590	297
28.615	425	28.641	282
28.665	410	28.691	275
28.717	395	28.742	278
28.767	381	28.792	289
28.818	367	28.844	313
28.868	356	28.894	341
28.919	346	28.945	378
28.970	339	28.995	417
29.021	337	29.046	461
29.071	338	29.096	504
29.122	342	29.148	543
29.172	348	29.198	580
29.223	359	29.249	610
29.274	371	29.299	633
29.325	387	29.350	645
29.375	403	29.401	649
29.426	419	29.452	644
29.476	435	29.502	632
29.528	450	29.553	607
29.578	462	29.603	580
29.629	472	29.655	543
29.679	479	29.705	504
29.730	480	29.756	461
29.781	479	29.806	422
29.832	474	29.857	382
29.882	465	29.907	348
29.933	452	29.959	318
29.983	438	30.009	298
30.034	421	30.060	289
30.085	404	30.110	285
30.136	386	30.161	292
30.186	369	30.212	309
30.237	353	30.263	334
30.287	340	30.313	364
30.339	330	30.364	401
30.389	325	30.414	439
30.440	324	30.466	481
30.490	325	30.516	520
30.541	333	30.567	557
30.592	343	30.617	588
30.643	357	30.668	613
30.693	374	30.718	630
30.744	392	30.770	638
30.794	411	30.820	639
30.845	431	30.871	629
30.896	448	30.921	612
30.947	465	30.972	588
30.997	478	31.023	558
31.048	487	31.074	521
31.098	493	31.124	484
31.150	493	31.175	443
31.200	489	31.225	406
31.251	480	31.277	371
31.301	469	31.327	342
31.352	452	31.378	318
31.403	434	31.428	304
31.454	414	31.479	297
31.504	393	31.530	298
31.555	372	31.581	311
31.605	354	31.631	331
31.656	338	31.682	356
31.707	325	31.732	387
31.758	316	31.783	423
31.809	311	31.834	460
31.859	313	31.885	498
31.910	318	31.935	532
31.961	327	31.986	565
32.012	342	32.036	592
32.062	359	32.088	612
32.113	379	32.138	623
32.163	401	32.189	628
32.215	422	32.239	625
32.265	444	32.290	611
32.316	463	32.341	593
32.366	481	32.392	566
32.417	493	32.442	536
32.467	502	32.493	501
32.519	505	32.543	466
32.569	503	32.594	428
32.620	497	32.645	395
32.670	484	32.696	364
32.721	469	32.746	340
32.772	449	32.797	323
32.823	427	32.847	312
32.873	404	32.899	310
32.924	381	32.949	315
32.974	358	33.000	331
33.026	339	33.050	350
33.076	322	33.101	378
33.127	310	33.152	408
33.177	302	33.203	443
33.228	300	33.253	476
33.278	302	33.304	511
33.330	311	33.354	542
33.380	325	33.405	571
33.431	343	33.456	591
33.481	364	33.507	607
33.532	387	33.557	614
33.583	413	33.608	615
33.634	437	33.658	607
33.684	460	33.710	593
33.735	479	33.760	573
33.785	496	33.811	545
33.837	508	33.861	516
33.887	515	33.912	482
33.938	515	33.963	449
33.988	510	34.014	416
34.039	500	34.064	387
34.090	485	34.115	361
34.141	464	34.165	343
34.191	442	34.216	329
34.242	418	34.267	324
34.292	391	34.318	325
34.343	367	34.368	335
34.394	342	34.419	351
34.445	323	34.469	372
34.495	307	34.521	398
34.546	296	34.571	428
34.596	290	34.622	460
34.648	291	34.672	491
34.698	297	34.723	522
34.749	310	34.774	548
34.799	327	34.825	570
34.850	348	34.876	586
34.901	372	34.926	599
34.952	399	34.977	602
35.002	426	35.027	599
35.053	451	35.079	589
35.103	475	35.129	573
35.154	495	35.180	553
35.205	510	35.230	526
35.256	520	35.281	499
35.306	525	35.332	467
35.357	523	35.383	438
35.407	515	35.433	407
35.459	502	35.484	385
35.509	482	35.534	363
35.560	459	35.586	349
35.610	433	35.636	339
35.661	405	35.687	338
35.712	377	35.737	343
35.763	352	35.788	354
35.813	326	35.838	370
35.864	308	35.890	392
35.914	293	35.940	419
35.965	283	35.991	446
36.016	281	36.041	474
36.067	285	36.092	502
36.117	295	36.143	529
36.168	310	36.194	549
36.218	332	36.244	568
36.270	357	36.295	580
36.320	383	36.345	587
36.371	412	36.397	587
36.421	441	36.447	582
36.472	468	36.498	571
36.523	492	36.548	553
36.574	510	36.599	532
36.624	525	36.650	507
36.675	531	36.701	482
36.725	533	36.751	454
36.776	527	36.802	429
36.827	516	36.852	405
36.878	499	36.903	385
36.928	476	36.954	368
36.979	449	37.005	358
37.029	421	37.055	351
37.081	391	37.106	355
37.131	362	37.156	360
37.182	335	37.208	373
37.232	311	37.258	390
37.283	294	37.309	411
37.334	281	37.359	436
37.385	275	37.410	459
37.435	274	37.461	486
37.486	283	37.512	508
37.536	295	37.562	531
37.587	315	37.613	547
37.638	339	37.663	562
37.689	367	37.714	569
37.739	398	37.765	574
37.790	428	37.816	570
37.840	457	37.866	563
37.892	482	37.917	551
37.942	507	37.967	534
37.993	523	38.019	514
38.043	535	38.069	492
38.094	540	38.120	469
38.145	538	38.170	445
38.196	529	38.221	424
38.246	514	38.272	404
38.297	493	38.323	390
38.347	467	38.373	375
38.398	437	38.424	370
38.449	406	38.474	367
38.500	375	38.525	372
38.550	346	38.576	380
38.601	320	38.627	393
38.651	298	38.677	409
38.703	281	38.728	429
38.753	271	38.778	449
38.804	268	38.830	471
38.854	271	38.880	494
38.905	283	38.931	510
38.956	301	38.981	530
39.007	322	39.032	542
39.057	350	39.083	552
39.108	380	39.134	556
39.158	412	39.184	558
39.210	444	39.235	552
39.260	473	39.285	545
39.311	499	39.336	532
39.361	520	39.387	517
39.412	535	39.438	498
39.462	544	39.488	479
39.514	545	39.539	460
39.564	540	39.589	440
39.615	526	39.641	424
39.665	507	39.691	407
39.716	482	39.742	396
39.767	454	39.792	386
39.818	423	39.843	385
39.868	391	39.894	383
39.919	360	39.945	389
39.969	330	39.995	398
40.021	305	40.046	411
40.071	285	40.096	426
40.122	271	40.147	443
40.172	264	40.198	459
40.223	265	40.249	478
40.273	272	40.299	496
40.325	288	40.350	509
40.375	307	40.400	524
40.426	333	40.452	533
40.476	363	40.502	540
40.527	395	40.553	542
40.578	428	40.603	542
40.629	459	40.654	535
40.679	488	40.705	527
40.730	513	40.756	514
40.780	532	40.806	502
40.832	544	40.857	486
40.882	550	40.907	470
40.933	547	40.958	454
40.983	538	41.009	438
41.034	521	41.060	425
41.084	499	41.110	414
41.136	471	41.161	405
41.186	441	41.211	401
41.237	407	41.263	400
41.287	375	41.313	401
41.338	344	41.364	407
41.389	315	41.414	415
41.440	292	41.465	427
41.490	274	41.516	439
41.541	265	41.567	453
41.591	259	41.617	467
41.643	265	41.668	482
41.693	276	41.718	496
41.744	294	41.770	506
41.794	318	41.820	516
41.845	346	41.871	522
41.895	378	41.921	527
41.947	411	41.972	526
41.997	444	42.022	524
42.048	475	42.074	517
42.098	502	42.124	511
42.149	524	42.175	500
42.200	541	42.225	489
42.251	550	42.276	477
42.301	552	42.327	464
42.352	544	42.378	452
42.402	532	42.428	440
42.454	512	42.479	432
42.504	487	42.529	423
42.555	456	42.581	419
42.605	424	42.631	415
42.656	391	42.682	417
42.706	358	42.732	418
42.758	328	42.783	425
42.808	302	42.833	432
42.859	280	42.885	441
42.909	267	42.935	450
42.960	261	42.986	461
43.011	260	43.036	472
43.062	268	43.087	482
43.112	282	43.138	491
43.163	304	43.189	498
43.213	330	43.239	506
43.265	361	43.290	509
43.315	394	43.340	510
43.366	427	43.392	509
43.416	460	43.442	507
43.467	489	43.493	501
43.517	515	43.543	496
43.569	535	43.594	487
43.619	547	43.644	480
43.670	553	43.696	470
43.720	552	43.746	461
43.771	541	43.797	453
43.823	524	43.847	446
43.873	501	43.898	440
43.924	473	43.949	435
43.974	441	44.000	433
44.025	408	44.050	432
44.076	374	44.101	433
44.127	343	44.151	433
44.177	314	44.203	439
44.228	290	44.253	444
44.278	273	44.304	451
44.330	262	44.354	457
44.380	259	44.405	465
44.431	263	44.455	472
44.481	274	44.507	478
44.532	292	44.557	484
44.582	317	44.608	489
44.634	346	44.658	493
44.684	378	44.709	493
44.735	411	44.760	495
44.785	444	44.811	493
44.836	476	44.861	491
44.887	503	44.912	487
44.938	526	44.962	484
44.988	542	45.014	478
45.039	551	45.064	473
45.089	552	45.115	468
45.141	546	45.165	463
45.191	532	45.216	458
45.242	513	45.266	455
45.292	487	45.318	451
45.343	458	45.368	448
45.393	425	45.419	449
45.445	392	45.469	448
45.495	359	45.520	449
45.546	328	45.571	449
45.596	302	45.622	453
45.647	281	45.672	455
45.698	268	45.723	459
45.749	261	45.773	462
45.799	261	45.825	466
45.850	269	45.875	469
45.900	283	45.926	473
45.952	304	45.976	475
46.002	331	46.027	477
46.053	361	46.077	480
46.103	394	46.129	478
46.154	427	46.179	480
46.204	460	46.230	478
46.256	489	46.280	477
46.306	514	46.331	475
46.357	533	46.382	474
46.407	545	46.433	472
46.458	551	46.483	471
46.509	549	46.534	468
46.560	539	46.584	467
46.610	522	46.636	466
46.661	501	46.686	465
