#Creator: pendulumdriveEventBuffer
#Creation time: Tue Mar 21 16:00:21 2017
#Time	Pos
#[s]	[au]
0.049	541
0.100	545
0.150	542
0.200	528
0.251	518
0.301	495
0.351	474
0.401	454
0.451	427
0.501	407
0.552	389
0.602	372
0.652	361
0.702	359
0.752	352
0.802	359
0.853	367
0.903	383
0.953	404
1.004	423
1.054	449
1.105	469
1.155	491
1.205	514
1.255	524
1.305	539
1.355	548
1.406	542
1.456	544
1.506	530
1.556	515
1.606	500
1.656	475
1.707	455
1.757	434
1.807	410
1.857	394
1.908	377
1.959	367
2.009	362
2.059	360
2.109	364
2.159	375
2.209	386
2.260	405
2.310	422
2.360	441
2.410	464
2.460	479
2.510	500
2.561	514
2.611	521
2.661	532
2.711	528
2.761	527
2.813	524
2.863	508
2.913	498
2.963	484
3.013	463
3.063	449
3.114	428
3.164	413
3.214	402
3.264	389
3.314	382
3.365	379
3.415	379
3.465	383
3.515	388
3.565	399
3.615	415
3.666	425
3.717	443
3.767	460
3.817	471
3.867	490
3.917	496
3.968	508
4.018	518
4.068	515
4.118	521
4.168	516
4.219	504
4.269	499
4.319	481
4.369	468
4.419	457
4.469	436
4.520	424
4.570	410
4.621	397
4.671	390
4.721	382
4.771	379
4.822	382
4.872	385
4.922	395
4.972	409
5.022	419
5.073	440
5.123	453
5.173	471
5.223	491
5.273	500
5.323	516
5.374	523
5.424	523
5.474	528
5.525	516
5.575	511
5.625	501
5.676	481
5.726	468
5.776	449
5.826	427
5.876	414
5.927	396
5.977	384
6.027	378
6.077	371
6.127	372
6.177	380
6.228	385
6.278	401
6.328	415
6.378	433
6.429	455
6.480	470
6.530	493
6.580	504
6.630	516
6.680	528
6.730	525
6.781	527
6.831	525
6.881	509
6.931	500
6.981	481
7.031	462
7.082	447
7.132	425
7.182	409
7.232	397
7.282	383
7.334	377
7.384	380
7.434	375
7.484	383
7.534	392
7.584	405
7.635	423
7.685	438
7.735	458
7.785	471
7.835	486
7.885	504
7.936	509
7.986	518
8.036	522
8.086	515
8.136	515
8.188	501
8.238	490
8.288	480
8.338	461
8.388	448
8.438	435
8.489	418
8.539	409
8.589	399
8.639	392
8.689	390
8.739	389
8.790	393
8.840	401
8.890	407
8.940	421
8.990	431
9.041	443
9.092	460
9.142	468
9.192	483
9.242	494
9.292	497
9.343	507
9.393	503
9.443	505
9.493	506
9.543	494
9.593	490
9.644	479
9.694	464
9.744	454
9.794	438
9.844	426
9.895	417
9.945	405
9.996	398
10.046	394
10.096	389
10.146	393
10.197	396
10.247	402
10.297	415
10.347	424
10.397	440
10.448	455
10.498	466
10.548	485
10.598	492
10.648	504
10.698	514
10.749	512
10.799	518
10.849	514
10.900	502
10.950	497
11.000	478
11.051	464
11.101	451
11.151	432
11.201	417
11.251	405
11.302	391
11.352	385
11.402	379
11.452	379
11.502	384
11.552	390
11.603	402
11.653	418
11.703	431
11.753	452
11.804	465
11.854	485
11.905	502
11.955	508
12.005	523
12.055	526
12.105	522
12.156	523
12.206	507
12.256	498
12.306	486
12.356	465
12.406	449
12.457	432
12.507	413
12.557	401
12.607	388
12.657	380
12.709	378
12.759	378
12.809	384
12.859	394
12.909	404
12.959	421
13.010	434
13.060	452
13.110	472
13.160	484
13.210	501
13.260	509
13.311	514
13.361	521
13.411	513
13.461	511
13.511	506
13.561	489
13.613	480
13.663	465
13.713	446
13.763	435
13.813	419
13.864	407
13.914	401
13.964	392
14.014	392
14.064	397
14.114	394
14.165	403
14.215	410
14.265	422
14.315	436
14.365	446
14.416	462
14.466	472
14.517	480
14.567	494
14.617	496
14.667	502
14.718	504
14.768	498
14.818	498
14.868	489
14.918	479
14.968	474
15.019	459
15.069	450
15.119	441
15.169	427
15.219	421
15.270	411
15.320	405
15.370	404
15.421	400
15.471	402
15.521	408
15.572	411
15.622	422
15.672	428
15.722	439
15.772	454
15.822	460
15.873	474
15.923	485
15.973	488
16.023	500
16.073	498
16.124	501
16.174	503
16.224	493
16.274	490
16.325	481
16.375	466
16.426	457
16.476	441
16.526	429
16.576	420
16.626	408
16.677	399
16.727	396
16.777	391
16.827	395
16.877	398
16.927	404
16.978	417
17.028	426
17.078	442
17.128	459
17.178	468
17.229	487
17.280	492
17.330	503
17.380	514
17.430	509
17.480	514
17.531	508
17.581	496
17.631	489
17.681	471
17.731	457
17.781	442
17.832	425
17.882	414
17.932	403
17.982	392
18.032	388
18.082	386
18.134	388
18.184	395
18.234	404
18.284	416
18.334	432
18.385	444
18.435	464
18.485	473
18.535	488
18.585	502
18.635	505
18.686	515
18.736	513
18.786	507
18.836	505
18.886	489
18.936	480
18.987	469
19.038	451
19.088	440
19.138	427
19.188	413
19.239	405
19.289	397
19.339	394
19.389	396
19.439	397
19.489	405
19.540	415
19.590	422
19.640	436
19.690	446
19.740	459
19.790	473
19.841	478
19.891	491
19.942	496
19.992	495
20.042	501
20.093	493
20.143	491
20.193	487
20.243	473
20.293	470
20.343	459
20.394	447
20.444	439
20.494	427
20.544	422
20.594	417
20.645	410
20.695	410
20.745	413
20.795	409
20.846	416
20.896	418
20.947	426
20.997	436
21.047	443
21.097	454
21.147	461
21.197	468
21.248	481
21.298	481
21.348	489
21.398	494
21.448	490
21.499	493
21.549	485
21.599	481
21.649	477
21.700	465
21.750	456
21.801	448
21.851	434
21.901	427
21.951	415
22.001	410
22.051	407
22.102	402
22.152	402
22.202	407
22.252	409
22.302	420
22.353	425
22.403	437
22.453	452
22.503	461
22.553	475
22.604	487
22.655	491
22.705	502
22.755	500
22.805	503
22.855	504
22.905	492
22.956	487
23.006	478
23.056	460
23.106	452
23.156	435
23.207	423
23.257	413
23.307	401
23.357	396
23.407	394
23.457	392
23.509	399
23.559	403
23.609	413
23.659	428
23.709	438
23.760	454
23.810	470
23.860	478
23.910	495
23.960	497
24.010	503
24.061	511
24.111	503
24.161	503
24.211	496
24.261	481
24.311	473
24.362	456
24.413	443
24.463	433
24.513	418
24.563	410
24.614	403
24.664	397
24.714	398
24.764	399
24.814	403
24.864	413
24.915	420
24.965	432
25.015	446
25.065	456
25.115	470
25.165	476
25.216	486
25.266	495
25.317	493
25.367	499
25.417	495
25.468	490
25.518	487
25.568	473
25.618	467
25.668	459
25.718	445
25.769	439
25.819	431
25.869	421
25.919	418
25.969	412
26.019	411
26.070	414
26.120	413
26.170	419
26.221	426
26.271	429
26.322	439
26.372	444
26.422	453
26.472	464
26.522	467
26.572	477
26.623	481
26.673	481
26.723	488
26.773	483
26.823	484
26.873	483
26.924	474
26.974	472
27.024	464
27.074	454
27.125	450
27.176	437
27.226	430
27.276	426
27.326	417
27.376	415
27.426	415
27.477	409
27.527	414
27.577	414
27.627	420
27.677	431
27.728	436
27.778	449
27.828	458
27.878	466
27.928	479
27.978	482
28.030	490
28.080	497
28.130	494
28.180	498
28.230	489
28.280	483
28.331	479
28.381	464
28.431	455
28.481	445
28.531	430
28.582	422
28.632	411
28.682	404
28.732	402
28.782	398
28.832	400
28.883	407
28.934	411
28.984	424
29.034	433
29.084	446
29.134	462
29.185	470
29.235	484
29.285	494
29.335	497
29.385	505
29.436	501
29.486	498
29.536	497
29.586	483
29.636	475
29.686	464
29.737	449
29.787	439
29.838	424
29.888	414
29.938	408
29.989	401
30.039	398
30.089	401
30.139	403
30.189	412
30.239	418
30.290	429
30.340	444
30.390	451
30.440	466
30.490	477
30.540	482
30.591	493
30.641	493
30.691	495
30.742	497
30.792	488
30.843	486
30.893	479
30.943	465
30.993	460
31.043	446
31.093	436
31.144	430
31.194	420
31.244	416
31.294	414
31.344	411
31.394	415
31.445	414
31.495	419
31.545	428
31.595	432
31.646	442
31.697	450
31.747	454
31.797	466
31.847	468
31.897	474
31.947	481
31.998	480
32.048	484
32.098	483
32.148	478
32.198	478
32.248	469
32.299	465
32.349	462
32.399	452
32.449	448
32.499	441
32.551	432
32.601	430
32.651	423
32.701	420
32.751	420
32.801	417
32.852	420
32.902	424
32.952	426
33.002	436
33.052	437
33.102	446
33.153	457
33.203	461
33.253	472
33.303	478
33.353	481
33.404	489
33.455	485
33.505	487
33.555	487
33.605	478
33.655	476
33.706	468
33.756	455
33.806	449
33.856	436
33.906	427
33.957	422
34.007	411
34.057	412
34.107	410
34.157	407
34.207	412
34.258	415
34.309	424
34.359	435
34.409	443
34.459	458
34.509	466
34.560	476
34.610	488
34.660	489
34.710	496
34.760	500
34.811	492
34.861	494
34.911	482
34.961	473
35.011	466
35.061	451
35.112	442
35.162	432
35.213	418
35.263	414
35.313	410
35.363	404
35.414	406
35.464	405
35.514	412
35.564	422
35.614	429
35.665	442
35.715	451
35.765	461
35.815	475
35.865	479
35.915	488
35.966	493
36.016	491
36.066	494
36.117	487
36.167	481
36.217	477
36.268	465
36.318	458
36.368	450
36.418	437
36.468	432
36.519	423
36.569	418
36.619	417
36.669	414
36.719	416
36.769	420
36.820	423
36.870	431
36.920	435
36.970	442
37.021	453
37.072	456
37.122	465
37.172	470
37.222	472
37.272	479
37.322	476
37.373	478
37.423	479
37.473	472
37.523	472
37.573	468
37.623	461
37.674	458
37.724	449
37.774	444
37.824	442
37.874	433
37.926	432
37.976	429
38.026	424
38.076	426
38.126	423
38.176	426
38.227	430
38.277	430
38.327	437
38.377	443
38.427	447
38.477	457
38.528	458
38.578	465
38.628	474
38.678	475
38.728	481
38.779	485
38.830	480
38.880	483
38.930	474
38.980	470
39.030	466
39.081	455
39.131	450
39.181	443
39.231	431
39.281	427
39.331	417
39.382	415
39.432	415
39.482	412
39.532	416
39.582	421
39.633	425
39.683	437
39.734	442
39.784	453
39.834	466
39.884	470
39.935	483
39.985	487
40.035	487
40.085	493
40.135	488
40.185	485
40.236	482
40.286	470
40.336	464
40.386	454
40.436	441
40.487	435
40.537	424
40.587	418
40.638	416
40.688	410
40.738	414
40.789	416
40.839	418
40.889	428
40.939	433
40.989	442
41.040	454
41.090	459
41.140	471
41.190	474
41.240	479
41.290	485
41.341	482
41.391	483
41.441	482
41.491	474
41.542	472
41.592	463
41.643	454
41.693	451
41.743	441
41.793	436
41.843	433
41.894	426
41.944	426
41.994	427
42.044	424
42.094	429
42.144	428
42.195	434
42.245	440
42.295	442
42.345	449
42.396	453
42.446	457
42.497	463
42.547	463
42.597	467
42.647	471
42.697	469
42.748	473
42.798	470
42.848	468
42.898	469
42.948	462
42.998	460
43.049	458
43.099	449
43.149	449
43.199	443
43.249	437
43.301	436
43.351	429
43.401	428
43.451	428
43.501	426
43.551	429
43.602	429
43.652	432
43.702	439
43.752	441
43.802	449
43.852	457
43.903	460
43.953	470
44.003	471
44.053	476
44.103	482
44.153	478
44.205	481
44.255	479
44.305	471
44.355	469
44.405	457
44.456	451
44.506	445
44.556	434
44.606	429
44.656	424
44.706	417
44.757	417
44.807	415
44.857	417
44.907	423
44.957	426
45.008	435
45.058	445
45.109	450
45.159	464
45.209	468
45.259	475
45.310	485
45.360	485
45.410	489
45.460	488
45.510	481
45.560	480
45.611	467
45.661	462
45.711	454
45.761	442
45.811	435
45.862	430
45.912	421
45.962	420
46.013	415
46.063	416
46.113	420
46.164	421
46.214	428
46.264	437
46.314	442
46.364	453
46.414	457
46.465	466
46.515	474
46.565	474
46.615	480
46.665	481
46.716	476
46.766	477
46.816	469
46.866	466
46.917	463
46.967	453
47.018	450
47.068	445
47.118	437
47.168	436
47.218	430
47.269	429
47.319	431
47.369	428
47.419	433
47.469	435
47.519	435
47.570	441
47.620	442
47.670	447
47.720	452
47.770	452
47.821	460
47.872	463
47.922	462
47.972	468
48.022	464
48.072	468
48.123	470
48.173	465
48.223	468
48.273	463
48.323	459
48.373	460
48.424	451
48.474	450
48.524	447
48.574	440
48.624	439
48.674	435
48.726	430
48.776	431
48.826	426
48.876	428
48.926	431
48.977	431
49.027	438
49.077	443
49.127	446
49.177	456
49.227	459
49.278	466
49.328	473
49.378	473
49.428	480
49.478	477
49.528	478
49.579	478
49.630	468
49.680	467
49.730	461
49.780	450
49.831	445
49.881	435
49.931	429
49.981	426
50.031	419
50.081	418
50.132	419
50.182	419
50.232	426
50.282	428
50.332	436
50.382	446
50.433	451
50.483	461
50.534	471
50.584	472
50.634	482
50.685	480
50.735	482
50.785	483
50.835	475
50.885	473
50.935	468
50.986	457
51.036	454
51.086	441
51.136	436
51.186	431
51.237	424
51.287	422
51.337	422
51.387	421
51.438	426
51.488	426
51.539	432
51.589	441
51.639	444
51.689	454
51.739	460
51.789	463
51.840	471
51.890	469
51.940	471
51.990	476
52.040	471
52.091	471
52.141	468
52.191	462
52.241	461
52.292	452
52.342	449
52.393	448
52.443	440
52.493	440
52.543	439
52.593	434
52.643	436
52.694	434
52.744	435
52.794	439
52.844	438
52.894	441
52.945	445
52.995	445
53.045	450
53.095	449
53.145	452
53.196	459
53.247	456
53.297	462
53.347	464
53.397	463
53.447	466
53.497	462
53.548	463
53.598	466
53.648	462
53.698	462
53.748	458
53.799	452
53.849	452
53.899	444
53.949	442
53.999	440
54.049	433
54.101	433
54.151	432
54.201	428
54.251	432
54.301	430
54.352	434
54.402	441
54.452	443
54.502	451
54.552	457
54.602	459
54.653	469
54.703	468
54.753	475
54.803	479
54.853	475
54.903	478
54.954	474
55.005	466
55.055	466
55.105	454
55.155	449
55.206	444
55.256	433
55.306	430
55.356	427
55.406	420
55.456	421
55.507	419
55.557	423
55.607	430
55.657	432
55.707	442
55.757	447
55.808	454
55.858	466
55.909	467
55.959	475
56.009	481
56.060	479
56.110	484
56.160	479
56.210	473
56.260	471
56.310	460
56.361	455
56.411	450
56.461	439
56.511	435
56.561	427
56.611	424
56.662	424
56.712	421
56.762	423
56.813	429
56.863	429
56.914	439
56.964	443
57.014	448
57.064	458
57.114	460
57.164	467
57.215	472
57.265	470
57.315	475
57.365	470
57.415	469
57.465	469
57.516	461
57.566	458
57.616	456
57.666	448
57.717	448
57.768	441
57.818	438
57.868	439
57.918	434
57.968	435
58.018	437
58.069	435
58.119	440
58.169	439
58.219	442
58.269	447
58.320	446
58.370	452
58.420	454
58.470	453
58.520	458
58.570	456
58.622	458
58.672	463
58.722	458
58.772	461
58.822	463
58.872	460
58.923	463
58.973	457
59.023	457
59.073	458
59.123	452
59.174	453
59.224	450
59.274	444
59.324	443
59.374	438
59.424	435
59.475	437
59.526	431
59.576	434
59.626	436
59.676	435
59.726	441
59.777	441
59.827	446
59.877	454
59.927	454
59.977	464
60.028	468
60.078	467
60.128	475
60.178	471
60.228	472
60.278	474
60.329	465
60.379	464
60.430	460
60.480	450
60.530	448
60.581	438
60.631	434
60.681	431
60.731	424
60.781	425
60.831	426
60.882	425
60.932	431
60.982	432
61.032	440
61.082	449
61.132	452
61.183	462
61.233	468
61.283	471
61.334	478
61.384	476
61.435	478
61.485	479
61.535	470
61.585	470
61.635	463
61.685	453
61.736	450
61.786	441
61.836	436
61.886	433
61.936	427
61.986	428
62.037	428
62.087	426
62.137	431
62.187	431
62.238	438
62.289	447
62.339	448
62.389	458
62.439	461
62.489	463
62.539	470
62.590	467
62.640	469
62.690	472
62.740	466
62.790	467
62.840	461
62.891	456
62.941	455
62.991	447
63.041	446
63.091	445
63.143	439
63.193	441
63.243	439
63.293	437
63.343	441
63.393	438
63.444	441
63.494	445
63.544	445
63.594	448
63.644	447
63.694	449
63.745	453
63.795	451
63.845	454
63.895	457
63.945	454
63.996	459
64.047	455
64.097	457
64.147	460
64.197	457
64.247	459
64.298	460
64.348	456
64.398	459
64.448	453
64.498	452
64.549	453
64.599	446
64.649	446
64.699	444
64.749	438
64.799	439
64.850	434
64.901	434
64.951	438
65.001	435
65.051	439
65.101	444
65.152	444
65.202	451
65.252	452
65.302	457
65.352	466
65.403	465
65.453	471
65.503	472
65.553	469
65.603	473
65.653	465
65.704	462
65.754	461
65.805	451
65.855	448
65.905	444
65.955	435
66.006	434
66.056	427
66.106	427
66.156	428
66.206	427
66.257	430
66.307	436
66.357	439
66.407	448
66.457	450
66.507	458
66.558	466
66.608	468
66.658	474
66.709	476
66.759	473
66.809	476
66.860	468
66.910	465
66.960	463
67.010	454
67.060	451
67.111	445
67.161	437
67.211	436
67.261	429
67.311	428
67.361	430
67.412	429
67.462	433
67.512	437
67.562	439
67.613	447
67.664	448
67.714	454
67.764	461
67.814	461
67.864	466
67.914	468
67.965	464
68.015	468
68.065	462
68.115	462
68.165	461
68.215	454
68.266	455
68.316	451
68.366	445
68.416	446
68.466	442
68.518	441
68.568	444
68.618	439
68.668	444
68.718	445
68.768	443
68.819	447
68.869	444
68.919	447
68.969	450
69.019	447
69.069	452
69.120	452
69.170	450
69.220	454
69.270	452
69.320	454
69.371	457
69.422	454
69.472	460
69.522	458
69.572	458
69.622	461
69.673	456
69.723	458
69.773	459
69.823	452
69.873	454
69.923	450
69.974	445
70.024	445
70.074	440
70.124	439
70.174	438
70.225	433
70.275	438
70.326	438
70.376	439
70.426	444
70.476	442
70.527	449
70.577	457
70.627	457
70.677	465
70.727	465
70.777	467
70.828	473
70.878	467
70.928	469
70.978	468
71.028	460
71.079	459
71.129	449
71.179	445
71.230	443
71.280	434
71.330	432
71.381	430
71.431	426
71.481	430
71.531	428
71.581	432
71.632	439
71.682	441
71.732	448
71.782	456
71.832	458
71.882	468
71.933	466
71.983	470
72.033	475
72.083	471
72.134	472
72.184	470
72.235	462
72.285	460
72.335	452
72.385	446
72.435	444
72.486	434
72.536	434
72.586	432
72.636	427
72.686	432
72.736	430
72.787	434
72.837	441
72.887	441
72.937	449
72.988	455
73.038	456
73.089	464
73.139	463
73.189	465
73.239	469
73.289	465
73.340	466
73.390	463
73.440	459
73.490	458
73.540	451
73.590	447
73.641	447
73.691	441
73.741	441
73.791	441
73.841	438
73.893	442
73.943	439
73.993	442
74.043	446
74.093	445
74.143	449
74.194	452
74.244	451
74.294	456
74.344	452
74.394	455
74.444	457
74.495	453
74.545	455
74.595	455
74.645	452
74.695	453
74.745	449
74.797	450
74.847	454
74.897	449
74.947	454
74.997	454
75.048	451
75.098	455
75.148	452
75.198	451
75.248	453
75.298	449
75.349	451
75.399	449
75.449	444
75.499	446
75.549	442
75.600	441
75.650	444
75.701	440
75.751	444
75.801	446
75.851	445
75.902	450
75.952	450
76.002	454
76.052	460
76.102	459
76.152	465
76.203	467
76.253	463
76.303	467
76.353	460
76.403	460
76.454	458
76.504	450
76.554	450
76.605	445
76.655	438
76.705	438
76.756	433
76.806	432
76.856	434
76.906	432
76.956	437
77.006	441
77.057	442
77.107	450
77.157	452
77.207	458
77.257	465
77.308	464
77.358	471
77.408	471
77.458	468
77.509	472
77.559	464
77.610	463
77.660	460
77.710	450
77.760	449
77.810	443
77.861	437
77.911	435
77.961	430
78.011	430
78.061	431
78.111	431
78.162	436
78.212	437
78.262	443
78.312	451
78.362	451
78.413	460
78.464	465
78.514	463
78.564	471
78.614	467
78.664	468
78.715	469
78.765	462
78.815	461
78.865	458
78.915	450
78.965	450
79.016	442
79.066	440
79.116	440
79.166	435
79.216	437
79.266	439
79.318	436
79.368	444
79.418	442
79.468	446
79.518	452
79.569	452
79.619	456
79.669	458
79.719	459
79.769	461
79.819	457
79.870	458
79.920	459
79.970	453
80.020	455
80.070	454
80.120	448
80.171	451
80.222	447
80.272	446
80.322	449
80.372	447
80.423	449
80.473	451
80.523	448
80.573	452
80.623	449
80.673	449
80.724	454
80.774	448
80.824	450
80.874	450
80.924	446
80.974	449
81.025	443
81.075	445
81.126	448
81.176	445
81.226	448
81.277	449
81.327	449
81.377	454
81.427	452
81.477	455
81.527	461
81.578	457
81.628	462
81.678	462
81.728	458
81.778	460
81.829	455
81.879	452
81.929	453
81.979	445
82.030	446
82.080	443
82.131	437
82.181	438
82.231	434
82.281	435
82.331	439
82.381	437
82.432	445
82.482	447
82.532	450
82.582	457
82.632	457
82.683	463
82.733	467
82.783	466
82.833	470
82.884	469
82.934	464
82.985	465
83.035	456
83.085	453
83.135	451
83.185	443
83.235	442
83.286	440
83.336	432
83.386	434
83.436	431
83.486	434
83.537	437
83.587	438
83.637	445
83.687	449
83.737	451
83.788	460
83.839	460
83.889	464
83.939	469
83.989	466
84.039	470
84.089	466
84.140	462
84.190	462
84.240	454
84.290	452
84.340	449
84.391	442
84.441	442
84.491	439
84.541	435
84.591	438
84.641	436
84.693	439
84.743	444
84.793	442
84.843	450
84.893	451
84.944	452
84.994	458
85.044	456
85.094	459
85.144	462
85.194	458
85.245	461
85.295	454
85.345	453
85.395	455
85.445	449
85.495	450
85.546	450
85.597	446
85.647	449
85.697	445
85.747	447
85.798	449
85.848	447
85.898	450
85.948	453
85.998	449
86.048	454
86.099	449
86.149	450
86.199	451
86.249	447
86.299	449
86.349	449
86.400	446
86.450	448
86.501	445
86.551	447
86.601	450
86.652	448
86.702	452
86.752	454
86.802	453
86.852	458
86.902	457
86.953	458
87.003	462
87.053	457
87.103	459
87.153	458
87.203	453
87.254	453
87.304	447
87.354	444
87.405	444
87.455	438
87.506	439
87.556	438
87.606	437
87.656	440
87.706	439
87.756	443
87.807	449
87.857	449
87.907	455
87.957	460
88.007	460
88.057	467
88.108	463
88.158	465
88.208	468
88.258	462
88.309	463
88.360	459
88.410	452
88.460	451
88.510	442
88.560	439
88.610	439
88.661	432
88.711	434
88.761	434
88.811	434
88.861	439
88.912	438
88.962	444
89.012	451
89.062	451
89.112	459
89.162	463
89.214	464
89.264	468
89.314	465
89.364	467
89.414	467
89.464	460
89.515	461
89.565	457
89.615	449
89.665	449
89.715	442
89.766	441
89.816	440
89.866	435
89.916	438
89.966	440
90.016	439
90.067	444
90.118	444
90.168	448
90.218	453
90.268	453
90.318	459
90.369	459
90.419	459
90.469	462
90.519	457
90.569	458
90.620	459
90.670	453
90.720	455
90.770	451
90.820	447
90.870	450
90.921	444
90.971	446
91.022	448
91.072	445
91.122	450
91.173	447
91.223	449
91.273	453
91.323	450
91.373	453
91.423	455
91.474	451
91.524	454
91.574	451
91.624	449
91.674	451
91.724	446
91.775	446
