#Creator: pendulumdriveEventBuffer
#Creation time: Tue Mar 21 16:00:21 2017
#Time	Pos
#[s]	[au]
0.050	428
0.100	453
0.151	478
0.201	505
0.251	527
0.301	548
0.351	563
0.401	565
0.452	576
0.502	574
0.552	562
0.602	551
0.652	531
0.704	512
0.754	489
0.804	460
0.854	441
0.904	418
0.954	399
1.005	386
1.055	379
1.105	372
1.155	374
1.205	380
1.255	394
1.306	410
1.356	427
1.406	452
1.456	474
1.506	499
1.557	521
1.608	535
1.658	555
1.708	565
1.758	570
1.808	571
1.859	550
1.909	554
1.959	539
2.009	513
2.059	497
2.110	473
2.160	448
2.210	427
2.260	412
2.310	390
2.360	378
2.411	370
2.461	368
2.512	371
2.562	377
2.612	393
2.662	415
2.713	429
2.763	452
2.813	472
2.863	498
2.913	517
2.964	534
3.014	548
3.064	545
3.114	562
3.164	561
3.214	548
3.265	544
3.315	530
3.365	512
3.416	494
3.466	471
3.516	453
3.567	434
3.617	416
3.667	405
3.717	396
3.767	388
3.818	391
3.868	395
3.918	406
3.968	418
4.018	432
4.068	453
4.119	471
4.169	491
4.219	509
4.269	518
4.320	538
4.370	546
4.421	545
4.471	550
4.521	544
4.571	535
4.621	522
4.672	498
4.722	487
4.772	467
4.822	444
4.872	430
4.922	413
4.973	398
5.023	389
5.073	382
5.123	383
5.173	387
5.225	392
5.275	408
5.325	425
5.375	441
5.425	463
5.475	477
5.526	503
5.576	520
5.626	531
5.676	547
5.726	553
5.776	558
5.827	556
5.877	540
5.927	539
5.977	525
6.027	505
6.078	491
6.129	471
6.179	452
6.229	436
6.279	417
6.329	408
6.380	399
6.430	393
6.480	395
6.530	400
6.580	408
6.630	420
6.681	431
6.731	451
6.781	468
6.831	484
6.881	502
6.932	515
6.982	529
7.033	537
7.083	534
7.133	542
7.183	537
7.234	526
7.284	518
7.334	503
7.384	486
7.434	468
7.484	447
7.535	434
7.585	419
7.635	404
7.685	400
7.735	395
7.786	394
7.836	396
7.887	402
7.937	416
7.987	431
8.037	445
8.088	467
8.138	485
8.188	505
8.238	521
8.288	529
8.338	545
8.389	552
8.439	553
8.489	553
8.539	544
8.589	537
8.640	525
8.690	502
8.740	490
8.791	471
8.841	449
8.891	435
8.942	422
8.992	407
9.042	399
9.092	391
9.142	393
9.193	396
9.243	401
9.293	414
9.343	433
9.393	445
9.443	462
9.494	475
9.544	496
9.594	511
9.644	521
9.695	532
9.745	527
9.796	540
9.846	537
9.896	525
9.946	521
9.996	509
10.047	492
10.097	478
10.147	459
10.197	445
10.247	431
10.297	416
10.348	410
10.398	404
10.448	400
10.498	404
10.548	415
10.599	421
10.650	433
10.700	445
10.750	464
10.800	481
10.850	497
10.901	514
10.951	518
11.001	537
11.051	544
11.101	543
11.151	547
11.202	542
11.252	533
11.302	522
11.352	499
11.402	490
11.452	473
11.504	451
11.554	438
11.604	425
11.654	408
11.704	403
11.755	396
11.805	396
11.855	398
11.905	402
11.955	414
12.005	427
12.056	440
12.106	457
12.156	468
12.206	489
12.256	503
12.306	513
12.357	526
12.408	532
12.458	536
12.508	535
12.558	523
12.609	523
12.659	512
12.709	495
12.759	484
12.809	470
12.859	457
12.910	442
12.960	428
13.010	421
13.060	416
13.110	412
13.161	413
13.211	419
13.261	426
13.312	436
13.362	444
13.412	463
13.463	477
13.513	488
13.563	505
13.613	516
13.663	526
13.713	532
13.764	527
13.814	535
13.864	530
13.914	520
13.964	513
14.015	499
14.065	486
14.115	470
14.165	451
14.216	440
14.266	427
14.317	414
14.367	408
14.417	405
14.467	402
14.517	405
14.567	408
14.618	419
14.668	430
14.718	442
14.768	459
14.818	473
14.869	489
14.919	503
14.969	509
15.019	524
15.069	530
15.120	531
15.171	534
15.221	527
15.271	523
15.321	514
15.371	498
15.422	489
15.472	475
15.522	460
15.572	449
15.622	441
15.672	429
15.723	423
15.773	417
15.823	419
15.873	422
15.923	426
15.973	437
16.025	449
16.075	459
16.125	472
16.175	480
16.225	496
16.276	507
16.326	514
16.376	521
16.426	515
16.476	524
16.526	521
16.577	509
16.627	506
16.677	495
16.727	480
16.777	468
16.827	454
16.878	442
16.929	430
16.979	418
17.029	414
17.079	411
17.130	407
17.180	412
17.230	423
17.280	426
17.330	437
17.380	447
17.431	463
17.481	478
17.531	492
17.581	506
17.631	509
17.681	526
17.732	531
17.782	527
17.833	533
17.883	530
17.933	523
17.984	513
18.034	495
18.084	490
18.134	476
18.184	460
18.234	450
18.285	439
18.335	428
18.385	422
18.435	417
18.485	419
18.535	421
18.586	423
18.636	433
18.687	443
18.737	452
18.787	466
18.838	473
18.888	489
18.938	499
18.988	502
19.038	515
19.088	517
19.139	518
19.189	516
19.239	504
19.289	503
19.339	494
19.390	479
19.440	471
19.490	459
19.540	448
19.591	438
19.641	426
19.692	423
19.742	420
19.792	416
19.842	421
19.892	426
19.942	433
19.993	444
20.043	451
20.093	469
20.143	482
20.193	491
20.244	506
20.294	515
20.344	524
20.394	529
20.444	524
20.495	530
20.546	526
20.596	516
20.646	510
20.696	499
20.746	486
20.796	475
20.847	457
20.897	448
20.947	437
20.997	425
21.047	421
21.098	418
21.148	416
21.198	418
21.248	419
21.298	429
21.348	438
21.400	446
21.450	460
21.500	471
21.550	483
21.600	494
21.650	497
21.701	510
21.751	515
21.801	514
21.851	516
21.901	510
21.952	507
22.002	499
22.052	483
22.102	479
22.152	467
22.202	455
22.253	447
22.304	440
22.354	433
22.404	429
22.454	426
22.505	429
22.555	433
22.605	437
22.655	448
22.705	457
22.755	469
22.806	480
22.856	485
22.906	501
22.956	509
23.006	515
23.056	522
23.107	515
23.157	523
23.208	518
23.258	506
23.308	504
23.359	493
23.409	480
23.459	469
23.509	458
23.559	445
23.609	436
23.660	425
23.710	421
23.760	418
23.810	414
23.860	418
23.910	427
23.961	430
24.011	438
24.061	446
24.112	460
24.162	472
24.213	482
24.263	493
24.313	498
24.363	511
24.413	515
24.463	512
24.514	518
24.564	514
24.614	509
24.664	503
24.714	488
24.764	485
24.815	475
24.865	459
24.915	455
24.965	447
25.016	438
25.067	436
25.117	430
25.167	433
25.217	437
25.267	438
25.317	448
25.368	456
25.418	465
25.468	475
25.518	479
25.568	493
25.618	501
25.669	503
25.719	512
25.769	512
25.819	513
25.869	510
25.921	499
25.971	497
26.021	489
26.071	475
26.121	468
26.171	457
26.222	446
26.272	438
26.322	427
26.372	425
26.422	422
26.473	420
26.523	424
26.573	428
26.623	434
26.673	444
26.723	448
26.774	463
26.825	475
26.875	482
26.925	496
26.975	505
27.025	511
27.076	516
27.126	512
27.176	519
27.226	516
27.276	506
27.327	505
27.377	496
27.427	487
27.477	477
27.527	463
27.577	458
27.628	450
27.678	440
27.729	438
27.779	435
27.829	434
27.879	437
27.930	437
27.980	444
28.030	453
28.080	458
28.130	470
28.181	479
28.231	487
28.281	494
28.331	493
28.381	504
28.431	505
28.482	503
28.532	504
28.583	498
28.633	494
28.683	486
28.734	472
28.784	467
28.834	459
28.884	448
28.934	443
28.984	436
29.035	431
29.085	428
29.135	426
29.185	431
29.235	435
29.285	438
29.336	449
29.386	458
29.436	468
29.487	478
29.537	482
29.588	497
29.638	506
29.688	508
29.738	516
29.788	515
29.838	517
29.889	515
29.939	504
29.989	504
30.039	495
30.089	484
30.139	476
30.190	466
30.240	459
30.290	450
30.340	439
30.391	439
30.442	436
30.492	432
30.542	436
30.592	442
30.642	445
30.692	451
30.743	454
30.793	467
30.843	475
30.893	482
30.943	490
30.993	491
31.044	500
31.094	502
31.144	497
31.194	502
31.244	498
31.296	491
31.346	485
31.396	475
31.446	470
31.496	460
31.546	450
31.597	445
31.647	440
31.697	434
31.747	433
31.797	429
31.847	434
31.898	438
31.948	441
31.998	451
32.048	459
32.098	465
32.149	480
32.200	483
32.250	497
32.300	504
32.350	505
32.400	514
32.451	516
32.501	516
32.551	513
32.601	502
32.651	503
32.702	494
32.752	482
32.802	476
32.852	467
32.902	457
32.952	450
33.003	441
33.053	439
33.104	435
33.154	431
33.204	435
33.254	438
33.305	441
33.355	448
33.405	450
33.455	463
33.505	470
33.556	475
33.606	486
33.656	491
33.706	496
33.756	500
33.806	494
33.857	500
33.907	497
33.957	488
34.008	487
34.058	480
34.108	473
34.159	466
34.209	455
34.259	452
34.309	447
34.359	441
34.410	441
34.460	441
34.510	442
34.560	446
34.610	446
34.660	457
34.711	464
34.761	469
34.811	479
34.861	487
34.912	495
34.962	501
35.013	500
35.063	509
35.113	511
35.163	507
35.213	507
35.264	501
35.314	497
35.364	489
35.414	475
35.464	473
35.514	464
35.565	454
35.615	449
35.665	442
35.715	436
35.765	434
35.817	431
35.867	434
35.917	437
35.967	439
36.017	447
36.067	453
36.118	461
36.168	469
36.218	472
36.268	483
36.318	490
36.368	492
36.419	498
36.469	494
36.519	500
36.569	498
36.619	490
36.670	490
36.721	485
36.771	476
36.821	472
36.871	464
36.921	460
36.972	455
37.022	448
37.072	448
37.122	447
37.172	446
37.222	451
37.273	454
37.323	459
37.373	464
37.423	467
37.473	479
37.524	485
37.574	489
37.625	497
37.675	495
37.725	502
37.775	503
37.826	497
37.876	500
37.926	495
37.976	488
38.026	484
38.076	474
38.127	468
38.177	461
38.227	450
38.277	447
38.327	442
38.378	436
38.428	435
38.479	437
38.529	436
38.579	439
38.629	440
38.680	449
38.730	456
38.780	462
38.830	471
38.880	475
38.930	484
38.981	491
39.031	492
39.081	499
39.131	500
39.181	500
39.232	500
39.282	492
39.332	493
39.383	488
39.433	478
39.483	476
39.534	470
39.584	462
39.634	459
39.684	451
39.734	452
39.785	451
39.835	448
39.885	452
39.935	454
39.985	458
40.035	463
40.086	463
40.136	474
40.186	480
40.236	481
40.287	489
40.337	492
40.388	495
40.438	495
40.488	488
40.538	493
40.588	490
40.639	481
40.689	479
40.739	472
40.789	465
40.839	459
40.889	449
40.940	448
40.990	445
41.040	437
41.090	438
41.140	439
41.191	440
41.242	444
41.292	444
41.342	454
41.392	459
41.442	464
41.493	474
41.543	480
41.593	487
41.643	493
41.693	491
41.743	500
41.794	503
41.844	498
41.894	501
41.944	497
41.994	494
42.044	489
42.096	478
42.146	477
42.196	471
42.246	462
42.296	461
42.347	456
42.397	452
42.447	451
42.497	447
42.547	450
42.597	454
42.648	455
42.698	461
42.748	465
42.798	472
42.848	476
42.898	474
42.949	484
43.000	488
43.050	487
43.100	491
43.150	489
43.201	489
43.251	485
43.301	477
43.351	477
43.401	472
43.451	464
43.502	460
43.552	455
43.602	450
43.652	447
43.702	442
43.753	443
43.803	444
43.853	442
43.904	448
43.954	453
44.004	457
44.055	461
44.105	464
44.155	476
44.205	482
44.255	486
44.305	493
44.356	493
44.406	500
44.456	502
44.506	495
44.556	500
44.607	498
44.657	492
44.707	488
44.757	479
44.808	477
44.858	471
44.909	462
44.959	462
45.009	457
45.059	452
45.109	451
45.159	447
45.210	451
45.260	453
45.310	452
45.360	459
45.410	463
45.461	467
45.511	473
45.561	472
45.611	481
45.661	484
45.712	482
45.763	488
45.813	487
45.863	484
45.913	483
45.963	475
46.014	477
46.064	472
46.114	464
46.164	463
46.214	457
46.264	452
46.315	451
46.365	444
46.415	448
46.465	447
46.515	446
46.565	451
46.617	455
46.667	459
46.717	466
46.767	467
46.817	476
46.868	483
46.918	484
46.968	493
47.018	495
47.068	499
47.118	500
47.169	494
47.219	499
47.269	496
47.319	489
47.369	487
47.419	481
47.470	476
47.521	471
47.571	460
47.621	461
47.671	457
47.722	451
47.772	452
47.822	451
47.872	452
47.922	453
47.972	450
48.023	457
48.073	461
48.123	464
48.173	470
48.223	473
48.273	479
48.324	481
48.374	479
48.425	484
48.475	485
48.525	481
48.576	482
48.626	479
48.676	477
48.726	472
48.776	464
48.826	465
48.877	460
48.927	453
48.977	455
49.027	453
49.077	452
49.127	453
49.178	449
49.228	457
49.279	460
49.329	461
49.379	468
49.430	474
49.480	480
49.530	484
49.580	483
49.630	493
49.680	496
49.731	494
49.781	499
49.831	496
49.881	495
49.931	492
49.982	485
50.032	484
50.082	479
50.132	472
50.183	469
50.233	465
50.284	460
50.334	456
50.384	449
50.434	451
50.484	450
50.534	448
50.585	451
50.635	454
50.685	457
50.735	460
50.785	460
50.836	468
50.886	473
50.936	474
50.986	479
51.036	478
51.087	484
51.138	484
51.188	478
51.238	483
51.288	480
51.338	475
51.388	474
51.439	469
51.489	467
51.539	463
51.589	457
51.639	458
51.690	457
51.740	454
51.790	457
51.840	459
51.890	460
51.940	463
51.992	463
52.042	471
52.092	476
52.142	479
52.192	483
52.242	485
52.293	492
52.343	493
52.393	491
52.443	494
52.493	494
52.544	491
52.594	490
52.644	481
52.694	482
52.744	477
52.794	468
52.845	467
52.896	462
52.946	456
52.996	455
53.046	446
53.097	449
53.147	449
53.197	447
53.247	450
53.297	453
53.347	453
53.398	459
53.448	459
53.498	467
53.548	471
53.598	471
53.648	479
53.699	481
53.749	482
53.800	483
53.850	477
53.900	483
53.951	481
54.001	475
54.051	476
54.101	473
54.151	470
54.201	468
54.252	461
54.302	463
54.352	461
54.402	457
54.452	461
54.502	462
54.553	464
54.603	466
54.653	465
54.704	473
54.754	476
54.805	476
54.855	483
54.905	485
54.955	488
55.005	491
55.055	485
55.106	492
55.156	489
55.206	484
55.256	485
55.306	481
55.356	478
55.407	473
55.457	464
55.507	465
55.557	460
55.608	454
55.659	453
55.709	452
55.759	451
55.809	450
55.859	446
55.909	452
55.960	455
56.010	455
56.060	460
56.110	464
56.160	468
56.210	472
56.261	470
56.311	478
56.361	481
56.411	480
56.461	484
56.513	483
56.563	484
56.613	482
56.663	477
56.713	479
56.763	476
56.814	470
56.864	472
56.914	469
56.964	466
57.014	466
57.065	462
57.115	465
57.165	466
57.215	465
57.265	468
57.315	468
57.366	474
57.417	475
57.467	474
57.517	480
57.567	483
57.617	482
57.668	485
57.718	482
57.768	485
57.818	484
57.868	477
57.919	480
57.969	477
58.019	471
58.069	470
58.119	466
58.169	462
58.220	459
58.270	453
58.321	455
58.371	453
58.421	450
58.471	451
58.522	453
58.572	455
58.622	456
58.672	455
58.722	464
58.773	466
58.823	468
58.873	474
58.923	475
58.973	480
59.023	482
59.074	480
59.124	486
59.175	486
59.225	483
59.275	485
59.326	479
59.376	481
59.426	480
59.476	473
59.526	474
59.576	472
59.627	468
59.677	468
59.727	463
59.777	467
59.827	466
59.877	463
59.928	468
59.978	469
60.028	469
60.079	472
60.129	471
60.180	476
60.230	478
60.280	475
60.330	480
60.380	481
60.430	478
60.481	479
60.531	472
60.581	475
60.631	473
60.681	466
60.731	467
60.782	465
60.832	461
60.882	460
60.932	453
60.983	456
61.034	455
61.084	451
61.134	455
61.184	455
61.234	456
61.284	460
61.335	459
61.385	466
61.435	469
61.485	469
61.535	477
61.585	479
61.636	481
61.686	485
61.736	480
61.786	488
61.836	487
61.888	484
61.938	486
61.988	483
62.038	483
62.088	481
62.138	475
62.189	474
62.239	473
62.289	468
62.339	469
62.389	467
62.439	465
62.490	466
62.540	461
62.590	465
62.640	466
62.690	464
62.741	468
62.792	469
62.842	472
62.892	473
62.942	468
62.992	474
63.043	475
63.093	471
63.143	473
63.193	471
63.243	471
63.294	470
63.344	464
63.394	467
63.444	464
63.494	461
63.544	461
63.595	461
63.645	460
63.696	460
63.746	455
63.796	460
63.846	461
63.897	462
63.947	464
63.997	467
64.047	470
64.097	475
64.148	472
64.198	480
64.248	481
64.298	482
64.348	487
64.398	485
64.449	487
64.499	487
64.549	481
64.600	485
64.650	482
64.700	478
64.751	478
64.801	474
64.851	473
64.901	470
64.951	463
65.002	466
65.052	465
65.102	461
65.152	464
65.202	462
65.252	463
65.303	463
65.353	461
65.403	465
65.453	467
65.504	466
65.554	469
65.605	468
65.655	470
65.705	473
65.755	467
65.805	473
65.856	473
65.906	468
65.956	470
66.006	467
66.056	468
66.106	467
66.157	463
66.207	464
66.257	464
66.307	463
66.357	464
66.409	463
66.459	466
66.509	467
66.559	465
66.609	471
66.659	473
66.710	474
66.760	478
66.810	474
66.860	482
66.910	483
66.960	480
67.011	486
67.061	486
67.111	484
67.161	484
67.211	478
67.262	483
67.313	480
67.363	473
67.413	476
67.463	471
67.513	469
67.564	469
67.614	460
67.664	464
67.714	461
67.764	457
67.814	460
67.865	461
67.915	460
67.965	462
68.015	457
68.065	463
68.116	465
68.166	463
68.217	467
68.267	469
68.317	471
68.367	471
68.418	468
68.468	472
68.518	473
68.568	468
68.618	472
68.668	471
68.719	470
68.769	470
68.819	465
68.869	469
68.919	468
68.970	467
69.020	470
69.071	470
69.121	470
69.171	472
69.221	467
69.272	475
69.322	476
69.372	474
69.422	478
69.472	479
69.522	482
69.573	481
69.623	477
69.673	482
69.723	482
69.773	478
69.824	480
69.874	478
69.924	477
69.975	475
70.025	468
70.075	471
70.126	469
70.176	464
70.226	464
70.276	463
70.326	461
70.377	461
70.427	456
70.477	460
70.527	460
70.577	458
70.627	461
70.678	463
70.728	463
70.778	464
70.828	461
70.879	468
70.929	469
70.980	469
71.030	471
71.080	471
71.130	474
71.180	475
71.231	470
71.281	474
71.331	473
71.381	472
71.431	474
71.481	472
71.532	473
71.582	473
71.632	470
71.682	473
71.732	473
71.783	471
71.834	474
71.884	474
71.934	477
71.984	476
72.034	473
72.085	478
72.135	478
72.185	476
72.235	478
72.285	476
72.335	477
72.386	477
72.436	471
72.486	475
72.536	474
72.586	470
72.636	471
72.688	467
72.738	467
72.788	465
72.838	461
72.888	462
72.939	462
72.989	458
73.039	460
73.089	459
73.139	460
73.189	461
73.240	458
73.290	463
73.340	463
73.390	464
73.440	467
73.490	467
73.541	471
73.592	472
73.642	469
73.692	474
73.742	475
73.793	475
73.843	477
73.893	471
73.943	477
73.993	478
74.043	473
74.094	477
74.144	477
74.194	474
74.244	476
74.294	470
74.345	476
74.395	475
74.445	472
74.496	475
74.546	474
74.596	474
74.647	475
74.697	470
74.747	476
74.797	476
74.847	472
74.897	474
74.948	475
74.998	473
75.048	472
75.098	468
75.148	469
75.199	470
75.249	464
75.299	466
75.349	465
75.400	464
75.450	463
75.501	458
75.551	461
75.601	461
75.651	459
75.701	461
75.751	462
75.802	462
75.852	464
75.902	461
75.952	467
76.002	469
76.053	467
76.103	472
76.153	473
76.203	476
76.253	477
76.304	474
76.355	479
76.405	480
76.455	478
76.505	481
76.555	480
76.606	480
76.656	480
76.706	473
76.756	477
76.806	475
76.856	474
76.907	475
76.957	473
77.007	473
77.057	473
77.107	467
77.157	471
77.209	470
77.259	468
77.309	471
77.359	470
77.409	472
77.460	470
77.510	467
77.560	471
77.610	470
77.660	467
77.710	470
77.761	468
77.811	468
77.861	467
77.911	463
77.961	465
78.011	465
78.062	462
78.113	464
78.163	463
78.213	463
78.263	463
78.314	459
78.364	465
78.414	465
78.464	463
78.514	468
78.564	468
78.615	469
78.665	473
78.715	468
78.765	476
78.815	477
78.865	478
78.916	480
78.966	478
79.017	481
79.067	481
79.117	480
79.168	482
79.218	481
79.268	478
79.318	478
79.368	476
79.418	476
79.469	475
79.519	469
79.569	473
79.619	471
79.669	469
79.719	469
79.770	463
79.820	468
79.871	467
79.921	462
79.971	467
80.022	467
80.072	465
80.122	467
80.172	463
80.222	467
80.272	466
80.323	463
80.373	467
80.423	467
80.473	466
80.523	467
80.574	463
80.624	467
80.674	466
80.724	463
80.775	467
80.825	466
80.876	467
80.926	467
80.976	463
81.026	469
81.076	470
81.126	467
81.177	471
81.227	474
81.277	472
81.327	476
81.377	472
81.428	479
81.478	479
81.528	476
81.578	480
81.628	480
81.679	478
81.730	481
81.780	474
81.830	479
81.880	478
81.930	473
81.980	476
82.031	475
82.081	473
82.131	472
82.181	466
82.231	470
82.282	468
82.332	464
82.382	467
82.432	465
82.482	466
82.532	464
82.584	460
82.634	465
82.684	466
82.734	462
82.784	466
82.834	464
82.885	466
82.935	466
82.985	464
83.035	467
83.085	467
83.136	464
83.186	468
83.236	466
83.286	468
83.336	468
83.386	464
83.437	469
83.488	470
83.538	468
83.588	472
83.638	472
83.689	473
83.739	474
83.789	470
83.839	477
83.889	477
83.939	475
83.990	479
84.040	480
84.090	480
84.140	480
84.190	474
84.240	480
84.291	479
84.341	475
84.392	478
84.442	475
84.492	476
84.543	474
84.593	469
84.643	472
84.693	471
84.743	466
84.793	469
84.844	466
84.894	466
84.944	466
84.994	460
85.044	465
85.094	463
85.145	462
85.195	464
85.245	464
85.296	464
85.346	464
85.397	460
85.447	466
85.497	467
85.547	466
85.597	468
85.647	468
85.698	469
85.748	470
85.798	465
85.848	470
85.898	471
85.948	469
85.999	473
86.049	471
86.099	474
86.149	473
86.200	470
86.251	475
86.301	476
86.351	474
86.401	478
86.451	473
86.501	478
86.552	477
86.602	474
86.652	478
86.702	479
86.752	476
86.802	479
86.853	475
86.903	478
86.953	477
87.003	472
87.053	475
87.105	474
87.155	471
87.205	471
87.255	467
87.305	468
87.355	467
87.406	463
87.456	466
87.506	464
87.556	463
87.606	463
87.657	459
87.707	463
87.757	463
87.807	460
87.857	464
87.907	464
87.958	461
88.009	465
88.059	461
88.109	467
88.159	468
88.209	464
88.260	470
88.310	470
88.360	472
88.410	473
88.460	468
88.511	475
88.561	475
88.611	473
88.661	477
88.711	477
88.761	478
88.812	477
88.862	473
88.913	478
88.963	478
89.013	473
89.063	479
89.114	477
89.164	476
89.214	477
89.264	471
89.314	477
89.365	475
89.415	472
89.465	474
89.515	473
89.565	472
89.615	472
89.666	465
89.716	470
89.767	469
89.817	465
89.867	467
89.918	466
89.968	466
90.018	465
90.068	459
90.118	464
90.168	464
90.219	461
90.269	464
90.319	464
90.369	464
90.419	465
90.469	460
90.520	466
90.570	466
90.620	466
90.671	468
90.721	470
90.772	470
90.822	473
90.872	468
90.922	474
90.972	474
91.022	472
91.073	476
91.123	477
91.173	478
91.223	478
91.273	473
91.323	479
91.374	479
91.424	476
91.474	478
91.524	477
91.575	478
91.626	478
91.676	471
91.726	476
91.776	476
